# M_IMBH = 1000 M_solar, rho0 = 226.00; gamma = 2.33
# First row contains values for alpha and r_t [pc]
# Remaining columns are: relative energy E [(km/s)^2], f(E) [(km/s)^-3 M_sun pc^-3]
0.000000000000000000e+00 9.999999999999999547e-07
4.751889919009340879e+00 3.618780121743274403e-02
4.857078307227426173e+00 3.804482831782180635e-02
4.964595157847734974e+00 4.000385391481647845e-02
5.074492013984963634e+00 4.207037379574293107e-02
5.186821559718191921e+00 4.425014885537182502e-02
5.301637645347405225e+00 4.654921454441301315e-02
5.418995313209096665e+00 4.897389037481095914e-02
5.538950824063325840e+00 5.153078944375860670e-02
5.661561684064881028e+00 5.422682793863926876e-02
5.786886672331488235e+00 5.706923463030333377e-02
5.914985869122261875e+00 6.006556030008505104e-02
6.045920684639923159e+00 6.322368708349558608e-02
6.179753888470587597e+00 6.655183768058642313e-02
6.316549639675233863e+00 7.005858442397502883e-02
6.456373517547278951e+00 7.375285816541868322e-02
6.599292553051013144e+00 7.764395694832813832e-02
6.745375260955948526e+00 8.174155442883941636e-02
6.894691672682512262e+00 8.605570801957290739e-02
7.047313369874800060e+00 9.059686672304056998e-02
7.203313518716512931e+00 9.537587862814671247e-02
7.362766905006509432e+00 1.004039980262150800e-01
7.525749970010792822e+00 1.056928921369665736e-01
7.692340847108125601e+00 1.112546474047772932e-01
7.862619399246836949e+00 1.171017753458943045e-01
8.036667257230771355e+00 1.232472179005242308e-01
8.214567858852747761e+00 1.297043523164589929e-01
8.396406488894276876e+00 1.364869955901963083e-01
8.582270320010715992e+00 1.436094080985153287e-01
8.772248454521466954e+00 1.510862971078995864e-01
8.966431967125242153e+00 1.589328194204409905e-01
9.164913948560883483e+00 1.671645835423116455e-01
9.367789550234659757e+00 1.757976513865698864e-01
9.575156029835440563e+00 1.848485393046129521e-01
9.787112797959617083e+00 1.943342186317279230e-01
1.000376146576810754e+01 2.042721157099298690e-01
1.022520589369831612e+01 2.146801113051493015e-01
1.045155224125436710e+01 2.255765396247069732e-01
1.068290901789953118e+01 2.369801867861441869e-01
1.091938713507518877e+01 2.489102887634318806e-01
1.116109995937128119e+01 2.613865290698274557e-01
1.140816336687377230e+01 2.744290358730808177e-01
1.166069579871516915e+01 2.880583787558044784e-01
1.191881831785466517e+01 3.022955652873081100e-01
1.218265466711519451e+01 3.171620371238081937e-01
1.245233132850522395e+01 3.326796658799918704e-01
1.272797758385368283e+01 3.488707489785963789e-01
1.300972557678711894e+01 3.657580050232613900e-01
1.329771037607875428e+01 3.833645692677848382e-01
1.359207004039989997e+01 4.017139890385272305e-01
1.389294568450468503e+01 4.208302188430044777e-01
1.420048154687986752e+01 4.407376158300144731e-01
1.451482505889211261e+01 4.614609351840183171e-01
1.483612691546597517e+01 4.830253254124656781e-01
1.516454114732641045e+01 5.054563241975096322e-01
1.550022519484043038e+01 5.287798541683940146e-01
1.584333998349331196e+01 5.530222187579270088e-01
1.619405000103559900e+01 5.782100989446595785e-01
1.655252337633784876e+01 6.043705493181166233e-01
1.691893195999084654e+01 6.315309957739921876e-01
1.729345140669005332e+01 6.597192323815224135e-01
1.767626125944369520e+01 6.889634194939275869e-01
1.806754503564495096e+01 7.192920815956643787e-01
1.846749031504936056e+01 7.507341065086177156e-01
1.887628882969974953e+01 7.833187445220095579e-01
1.929413655584174947e+01 8.170756076186806993e-01
1.972123380787399327e+01 8.520346704451339237e-01
2.015778533437795161e+01 8.882262707646073618e-01
2.060400041627350376e+01 9.256811108303779623e-01
2.106009296714732315e+01 9.644302594746972934e-01
2.152628163580214604e+01 1.004505154621833984e+00
2.200278991107605719e+01 1.045937606433221978e+00
2.248984622898204577e+01 1.088759800929997468e+00
2.298768408221926052e+01 1.133004304474416468e+00
2.349654213210844134e+01 1.178704068689647722e+00
2.401666432300509513e+01 1.225892435824768256e+00
2.454829999924534079e+01 1.274603144898317053e+00
2.509170402468053851e+01 1.324870338615578680e+00
2.564713690485795183e+01 1.376728570358596082e+00
2.621486491190594137e+01 1.430212812028344826e+00
2.679516021218367783e+01 1.485358462566553461e+00
2.738830099675650942e+01 1.542201356946303781e+00
2.799457161475962508e+01 1.600777775513048562e+00
2.861426270971375274e+01 1.661124453841461790e+00
2.924767135885838343e+01 1.723278593594519625e+00
2.989510121556935474e+01 1.787277873518346771e+00
3.055686265492900588e+01 1.853160460606712467e+00
3.123327292251860499e+01 1.920965022309927273e+00
3.192465628650450071e+01 1.990730739234238156e+00
3.263134419309090362e+01 2.062497317553869003e+00
3.335367542541380459e+01 2.136305002718139168e+00
3.409199626595211186e+01 2.212194593286395783e+00
3.484666066253395655e+01 2.290207454719979552e+00
3.561803039801777260e+01 2.370385534270534222e+00
3.640647526372949727e+01 2.452771376143430437e+00
3.721237323673888397e+01 2.537408136527536051e+00
3.803611066106004301e+01 2.624339599410972390e+00
3.887808243286314536e+01 2.713610192977583324e+00
3.973869218978597928e+01 2.805265005906512066e+00
4.061835250443605361e+01 2.899349803589319485e+00
4.151748508217607991e+01 2.995911046863136917e+00
4.243652096328775514e+01 3.094995907883944852e+00
4.337590072961067023e+01 3.196652288722168667e+00
4.433607471575525238e+01 3.300928839569230000e+00
4.531750322499126327e+01 3.407874976973759296e+00
4.632065674991518733e+01 3.517540902508686784e+00
4.734601619800241679e+01 3.629977622208238941e+00
4.839407312215220713e+01 3.745236966072386764e+00
4.946532995633588570e+01 3.863371607324041168e+00
5.056030025646177251e+01 3.984435082653088323e+00
5.167950894657143124e+01 4.108481812816622281e+00
5.282349257048610269e+01 4.235567122703366216e+00
5.399279954902355172e+01 4.365747262734619660e+00
5.518799044290857836e+01 4.499079429943640740e+00
5.640963822150337137e+01 4.635621789767172096e+00
5.765832853748657527e+01 4.775433497623114754e+00
5.893466000761275581e+01 4.918574721500632130e+00
6.023924449968662742e+01 5.065106663881771887e+00
6.157270742588973889e+01 5.215091584815067627e+00
6.293568804260050342e+01 5.368592825414157943e+00
6.432883975685095379e+01 5.525674831098850603e+00
6.575283043956723361e+01 5.686403175123590614e+00
6.720834274574396261e+01 5.850844583351518580e+00
6.869607444170615906e+01 6.019066958600516770e+00
7.021673873961545098e+01 6.191139405242953586e+00
7.177106463938090997e+01 6.367132254306773653e+00
7.335979727813835893e+01 6.547117089829456837e+00
7.498369828746592702e+01 6.731166774427519428e+00
7.664354615850710672e+01 6.919355475325559723e+00
7.834013661517589355e+01 7.111758691277088040e+00
8.007428299562340612e+01 7.308453280566284960e+00
8.184681664214869556e+01 7.509517487515142697e+00
8.365858729974077335e+01 7.715030970591283399e+00
8.551046352344260981e+01 7.925074831463548186e+00
8.740333309473258794e+01 8.139731643531925798e+00
8.933810344712324536e+01 8.359085480868886364e+00
9.131570210118097464e+01 8.583221948496376541e+00
9.333707710917541078e+01 8.812228212558970597e+00
9.540319750957144151e+01 9.046193030911263477e+00
9.751505379158217579e+01 9.285206784062108198e+00
9.967365837000531315e+01 9.529361507183335078e+00
1.018800460705703728e+02 9.778750922370614163e+00
1.041352746260293998e+02 1.003347047108952061e+01
1.064404251832297916e+02 1.029361734765343250e+01
1.087966028214115823e+02 1.055929053307112930e+01
1.112049370819774197e+02 1.083059082911476523e+01
1.136665825099896949e+02 1.110762089366120620e+01
1.161827192076547419e+02 1.139048527590978210e+01
1.187545534000586684e+02 1.167929045235718810e+01
1.213833180134264609e+02 1.197414486389386212e+01
1.240702732661814878e+02 1.227515895340869179e+01
1.268167072730886531e+02 1.258244520275411560e+01
1.296239366627714560e+02 1.289611817198686872e+01
1.324933072088978463e+02 1.321629453905544338e+01
1.354261944753379794e+02 1.354309313892882471e+01
1.384240044756041073e+02 1.387663500468436339e+01
1.414881743468871491e+02 1.421704340862993909e+01
1.446201730390141336e+02 1.456444390484786666e+01
1.478215020186564459e+02 1.491896437161874722e+01
1.510936959891261893e+02 1.528073505461613202e+01
1.544383236261069783e+02 1.564988861211651994e+01
1.578569883296698606e+02 1.602656015960065616e+01
1.613513289929361179e+02 1.641088731533949741e+01
1.649230207877560304e+02 1.680301024734210458e+01
1.685737759677789711e+02 1.720307172123961337e+01
1.723053446893002274e+02 1.761121714805097582e+01
1.761195158502786171e+02 1.802759463360829884e+01
1.800181179479261004e+02 1.845235502884597878e+01
1.840030199552820704e+02 1.888565198071864870e+01
1.880761322171906045e+02 1.932764198397500977e+01
1.922394073661112373e+02 1.977848443406801238e+01
1.964948412582029960e+02 2.023834168092843200e+01
2.008444739301290554e+02 2.070737908386366755e+01
2.052903905770416770e+02 2.118576506681537808e+01
2.098347225522155384e+02 2.167367117584754510e+01
2.144796483888092951e+02 2.217127213622482529e+01
2.192273948442455378e+02 2.267874591155061736e+01
2.240802379677082570e+02 2.319627376390332785e+01
2.290405041912706281e+02 2.372404031357360310e+01
2.341105714451771291e+02 2.426223360296696896e+01
2.392928702978128683e+02 2.481104515851834691e+01
2.445898851209075531e+02 2.537067005547930520e+01
2.500041552805325580e+02 2.594130698283236214e+01
2.555382763544619706e+02 2.652315831093349985e+01
2.611949013764819369e+02 2.711643015898997433e+01
2.669767421082432293e+02 2.772133246364261794e+01
2.728865703392677347e+02 2.833807905059572718e+01
2.789272192157326913e+02 2.896688770504858823e+01
2.851015845986691488e+02 2.960798024565006870e+01
2.914126264522246856e+02 3.026158259839917264e+01
2.978633702626577815e+02 3.092792487208017604e+01
3.044569084887424992e+02 3.160724143605939318e+01
3.111964020442807737e+02 3.229977099700333554e+01
3.180850818134303495e+02 3.300575668386981221e+01
3.251262501995760772e+02 3.372544611988745089e+01
3.323232827084885912e+02 3.445909151520374536e+01
3.396796295665271259e+02 3.520694974623160789e+01
3.471988173746632356e+02 3.596928244216343984e+01
3.548844507991177579e+02 3.674635607338401400e+01
3.627402142994221776e+02 3.753844204015774721e+01
3.707698738947337915e+02 3.834581676298187602e+01
3.789772789692480615e+02 3.916876177617475463e+01
3.873663641175761541e+02 4.000756382010463597e+01
3.959411510309740265e+02 4.086251493915230526e+01
4.047057504253229467e+02 4.173391257751065098e+01
4.136643640117896439e+02 4.262205967956911223e+01
4.228212865111078145e+02 4.352726479107226254e+01
4.321809077124490273e+02 4.444984216125085652e+01
4.417477145778693171e+02 4.539011184974226154e+01
4.515262933933391878e+02 4.634839983179618628e+01
4.615213319673880505e+02 4.732503810791337173e+01
4.717376218784209527e+02 4.832036481512879078e+01
4.821800607717800631e+02 4.933472433867027007e+01
4.928536547076548686e+02 5.036846742837515478e+01
5.037635205609656168e+02 5.142195131504828964e+01
5.149148884743702865e+02 5.249553983040046745e+01
5.263131043655765779e+02 5.358960352622468548e+01
5.379636324901451871e+02 5.470451980014551907e+01
5.498720580610353181e+02 5.584067301358019364e+01
5.620440899261296863e+02 5.699845465806593836e+01
5.744855633050324286e+02 5.817826340917038408e+01
5.872024425864476598e+02 5.938050533765914452e+01
6.002008241874821124e+02 6.060559400537876940e+01
6.134869394762396269e+02 6.185395061096072311e+01
6.270671577591172081e+02 6.312600413054122583e+01
6.409479893342160040e+02 6.442219145787217371e+01
6.551360886123544560e+02 6.574295756751209296e+01
6.696382573071632578e+02 6.708875562606746712e+01
6.844614476957979150e+02 6.846004717953508134e+01
6.996127659518296014e+02 6.985730229010187031e+01
7.150994755519149066e+02 7.128099969685001724e+01
7.309290007578733821e+02 7.273162697643778074e+01
7.471089301758523789e+02 7.420968070376018488e+01
7.636470203942640183e+02 7.571566661984367386e+01
7.805511997022651940e+02 7.725009979922973002e+01
7.978295718905443437e+02 7.881350482094865129e+01
8.154904201362437561e+02 8.040641594382648805e+01
8.335422109738784684e+02 8.202937728524317151e+01
8.519935983541572568e+02 8.368294299794779079e+01
8.708534277926465847e+02 8.536767746141872237e+01
8.901307406102805544e+02 8.708415546623820092e+01
9.098347782677201394e+02 8.883296240785004727e+01
9.299749867956765002e+02 9.061469448417489048e+01
9.505610213232960177e+02 9.242995888886041200e+01
9.716027507067875604e+02 9.427937401787703209e+01
9.931102622605091028e+02 9.616356967417358703e+01
1.015093866592783456e+03 9.808318727550916094e+01
1.037564102548756637e+03 1.000388800685397115e+02
1.060531742262684020e+03 1.020313133463919115e+02
1.084007796322031254e+03 1.040611646750380572e+02
1.108003519045912526e+03 1.061291241077099414e+02
1.132530413880358765e+03 1.082358944511981491e+02
1.157600238913021485e+03 1.103821914345057991e+02
1.183225012509948328e+03 1.125687440116090556e+02
1.209417019077136274e+03 1.147962945718194021e+02
1.236188814949620792e+03 1.170655991908117102e+02
1.263553234410938103e+03 1.193774278849301709e+02
1.291523395845811137e+03 1.217325648660792581e+02
1.320112708029055739e+03 1.241318088068092038e+02
1.349334876553687536e+03 1.265759731045769030e+02
1.379203910401324265e+03 1.290658861540103999e+02
1.409734128658030613e+03 1.316023916215444274e+02
1.440940167378827027e+03 1.341863487286953500e+02
1.472836986604147569e+03 1.368186325352573078e+02
1.505439877531631964e+03 1.395001342301042655e+02
1.538764469846640850e+03 1.422317614313509466e+02
1.572826739215071484e+03 1.450144384857389923e+02
1.607643014942021409e+03 1.478491067796771858e+02
1.643229987799985111e+03 1.507367250534145739e+02
1.679604718030339882e+03 1.536782697171478560e+02
1.716784643521951011e+03 1.566747351808267865e+02
1.754787588170817571e+03 1.597271341797939783e+02
1.793631770424785600e+03 1.628364981130359297e+02
1.833335812017371609e+03 1.660038773926311819e+02
1.873918746894955802e+03 1.692303417901170803e+02
1.915400030341570300e+03 1.725169807918035474e+02
1.957799548305679309e+03 1.758649039575331301e+02
2.001137626933415277e+03 1.792752413029683964e+02
2.045435042312847372e+03 1.827491436637393178e+02
2.090713030433943459e+03 1.862877830834612212e+02
2.136993297369030188e+03 1.898923532023322593e+02
2.184298029678562671e+03 1.935640696565895382e+02
2.232649905047285301e+03 1.973041705046771597e+02
2.282072103155811874e+03 2.011139165916369222e+02
2.332588316792861406e+03 2.049945920094363316e+02
2.384222763213483177e+03 2.089475045039129952e+02
2.437000195748701572e+03 2.129739859182421355e+02
2.490945915672151841e+03 2.170753926361580000e+02
2.546085784329421585e+03 2.212531060306278619e+02
2.602446235535839605e+03 2.255085329399310012e+02
2.660054288248750709e+03 2.298431061198883185e+02
2.718937559520285049e+03 2.342582847304436768e+02
2.779124277736851582e+03 2.387555548053697123e+02
2.840643296151705272e+03 2.433364297576360400e+02
2.903524106717074119e+03 2.480024508781669397e+02
2.967796854222464844e+03 2.527551878530786098e+02
3.033492350745972544e+03 2.575962392948510455e+02
3.100642090425419156e+03 2.625272332773686799e+02
3.169278264556533031e+03 2.675498278726777244e+02
3.239433777025310064e+03 2.726657116922643809e+02
3.311142260081996938e+03 2.778766044585610757e+02
3.384438090464243942e+03 2.831842575597602263e+02
3.459356405877167617e+03 2.885904546470007972e+02
3.535933121838205352e+03 2.940970122318303197e+02
3.614204948894891459e+03 2.997057802922762448e+02
3.694209410223689247e+03 3.054186429773332634e+02
3.775984859618470182e+03 3.112375189947657077e+02
3.859570499877150723e+03 3.171643624949275591e+02
3.945006401595343505e+03 3.232011635960236617e+02
4.032333522376028668e+03 3.293499490723047529e+02
4.121593726464451720e+03 3.356127830241065908e+02
4.212829804817654804e+03 3.419917675867249045e+02
4.306085495618310233e+03 3.484890436307767914e+02
4.401405505242565596e+03 3.551067914674648591e+02
4.498835529692121781e+03 3.618472315633679273e+02
4.598422276500690714e+03 3.687126252907419257e+02
4.700213487125387473e+03 3.757052756431502303e+02
4.804257959833776113e+03 3.828275280549674449e+02
4.910605573097549495e+03 3.900817711596819777e+02
5.019307309504044497e+03 3.974704376009966040e+02
5.130415280197116772e+03 4.049960048397156811e+02
5.243982749858932038e+03 4.126609959654467730e+02
5.360064162244871113e+03 4.204679805344458146e+02
5.478715166283619510e+03 4.284195754175760271e+02
5.599992642755024463e+03 4.365184456877620391e+02
5.723954731558494132e+03 4.447673055258329100e+02
5.850660859585013895e+03 4.531689190788482051e+02
5.980171769206135650e+03 4.617261014615148724e+02
6.112549547393648027e+03 4.704417196043062859e+02
6.247857655483740018e+03 4.793186932369450801e+02
6.386160959600132628e+03 4.883599958449513565e+02
6.527525761750611309e+03 4.975686557011369473e+02
6.672019831611920381e+03 5.069477568610872709e+02
6.819712439018255282e+03 5.165004401898236210e+02
6.970674387168923204e+03 5.262299043939813146e+02
7.124978046571073719e+03 5.361394071084969255e+02
7.282697389733869386e+03 5.462322659565777485e+02
7.443908026630499080e+03 5.565118596190882272e+02
7.608687240945333542e+03 5.669816290345581820e+02
7.777114027123371670e+03 5.776450785201656117e+02
7.949269128239840938e+03 5.885057769672503127e+02
8.125235074708076354e+03 5.995673589737301654e+02
8.305096223844248016e+03 6.108335260912007243e+02
8.488938800307874772e+03 6.223080480070577778e+02
8.676850937437624452e+03 6.339947638217608983e+02
8.868922719501957545e+03 6.458975833679110110e+02
9.065246224885195261e+03 6.580204884831189247e+02
9.265915570229492005e+03 6.703675343781479796e+02
9.471026955553945299e+03 6.829428509261023237e+02
9.680678710372472779e+03 6.957506440729043788e+02
9.894971340832547867e+03 7.087951971607717496e+02
1.011400757789740601e+04 7.220808724386822632e+02
1.033789242659489719e+04 7.356121124899300412e+02
1.056673321635632965e+04 7.493934417557991310e+02
1.080063965246980842e+04 7.634294680246852067e+02
1.103972386867246496e+04 7.777248838872501437e+02
1.128410048090688542e+04 7.922844684124480636e+02
1.153388664226749825e+04 8.071130885780995641e+02
1.178920209916325985e+04 8.222157010218036248e+02
1.205016924872355230e+04 8.375973536981673533e+02
1.231691319747492344e+04 8.532631875467731106e+02
1.258956182131647984e+04 8.692184381871393271e+02
1.286824582682314031e+04 8.854684376862180670e+02
1.315309881390576993e+04 9.020186162253680777e+02
1.344425733985841180e+04 9.188745039518424846e+02
1.374186098482325906e+04 9.360417328819858085e+02
1.404605241870477403e+04 9.535260380511148242e+02
1.435697746956499941e+04 9.713332631286724563e+02
1.467478519353301817e+04 9.894693549179486354e+02
1.499962794626164032e+04 1.007940372707557003e+03
1.533166145596616661e+04 1.026752486572328962e+03
1.567104489807979553e+04 1.045911980156870413e+03
1.601794097156163843e+04 1.065425252878004358e+03
1.637251597689389200e+04 1.085298822039859942e+03
1.673493989580558627e+04 1.105539325017984993e+03
1.710538647276104894e+04 1.126153521411688189e+03
1.748403329825239052e+04 1.147148295260584291e+03
1.787106189393542081e+04 1.168530657305365139e+03
1.826665779965047477e+04 1.190307747362902319e+03
1.867101066236939005e+04 1.212486836771859316e+03
1.908431432711143498e+04 1.235075330859564247e+03
1.950676692987179194e+04 1.258080771351457315e+03
1.993857099260708128e+04 1.281510838877555898e+03
2.037993352032348048e+04 1.305373355390219103e+03
2.083106610031420132e+04 1.329676286803744688e+03
2.129218500359327663e+04 1.354427745751497469e+03
2.176351128857510776e+04 1.379635994360492759e+03
2.224527090704888906e+04 1.405309446913212923e+03
2.273769481249891396e+04 1.431456672698131115e+03
2.324101907082266916e+04 1.458086398838571768e+03
2.375548497349983154e+04 1.485207512925826904e+03
2.428133915326629722e+04 1.512829066263996083e+03
2.481883370234904942e+04 1.540960276802982889e+03
2.536822629331780263e+04 1.569610532395734253e+03
2.592978030261229651e+04 1.598789393776257157e+03
2.650376493680380372e+04 1.628506597721964454e+03
